1602867869.00
64.000000
-0.00
-0.00
-0.00
-0.00
-0.00
-0.00
-0.00
-0.00
-0.00
-0.00
0.00
0.01
0.01
-0.00
-0.03
-0.05
-0.05
0.00
0.13
0.36
0.66
1.01
1.37
1.72
2.06
2.40
2.79
3.24
3.80
4.42
5.06
5.66
6.20
6.68
7.15
7.68
8.31
9.14
10.09
11.04
11.88
12.56
13.14
13.76
14.65
15.96
17.91
20.32
22.90
25.38
27.58
29.57
31.68
34.32
37.81
42.54
48.15
54.10
59.83
64.97
69.58
74.14
79.34
85.71
93.76
103.00
112.62
121.73
129.77
136.75
143.30
150.75
157.77
166.64
177.95
191.79
206.97
220.57
228.25
225.36
208.53
176.87
132.76
80.05
23.07
-34.94
-92.44
-149.16
-205.23
-260.37
-313.74
-363.87
-409.83
-450.91
-486.50
-515.74
-537.23
-549.22
-549.96
-538.37
-514.21
-478.67
-433.88
-382.45
-327.02
-269.84
-212.63
-156.66
-102.95
-52.37
-5.90
35.58
71.43
101.35
125.50
144.38
158.69
169.15
176.37
180.75
182.57
182.07
179.51
175.23
169.65
163.18
156.15
148.81
141.30
133.69
126.02
118.33
110.69
103.16
95.80
88.68
81.83
75.25
68.95
62.95
57.25
51.86
46.78
42.03
37.59
33.45
29.61
26.07
22.81
19.83
17.11
14.67
12.48
10.54
8.83
7.35
6.07
4.97
4.05
3.27
2.62
2.09
1.65
1.30
1.01
0.79
0.61
0.47
0.37
0.29
0.23
0.19
0.16
0.15
0.15
0.16
0.17
0.20
0.23
0.26
0.30
0.34
0.38
0.43
0.48
0.52
0.57
0.63
0.68
0.74
0.81
0.88
0.95
1.04
1.13
1.23
1.35
1.47
1.62
1.78
1.95
2.15
2.37
2.62
2.89
3.18
3.51
3.87
4.26
4.68
5.15
5.65
6.19
6.77
7.40
8.06
8.78
9.53
10.34
11.19
12.09
13.02
14.02
15.07
16.19
17.37
18.61
19.89
21.18
22.44
23.57
24.50
25.10
25.25
24.82
23.75
21.96
19.44
16.25
12.44
8.20
3.70
-0.85
-5.24
-9.27
-12.79
-15.68
-17.86
-19.34
-20.13
-20.34
-20.04
-19.37
-18.42
-17.28
-16.02
-14.66
-13.23
-11.70
-10.09
-8.38
-6.57
-4.65
-2.62
-0.51
1.65
3.86
6.14
8.42
10.66
12.86
15.03
17.19
19.32
21.47
23.69
26.11
28.64
31.28
34.11
37.15
40.45
43.98
47.71
51.71
56.09
60.67
65.40
70.33
75.47
80.71
85.85
90.68
95.08
99.16
102.66
105.66
108.29
110.50
111.92
111.73
108.67
101.04
91.25
80.19
68.69
57.47
46.92
36.88
26.69
15.46
2.48
-12.38
-29.17
-47.21
-65.48
-83.12
-99.83
-115.97
-132.63
-151.33
-173.65
-200.96
-233.01
-267.43
-299.92
-325.30
-339.16
-339.39
-326.74
-304.23
-275.92
-244.77
-211.87
-176.46
-136.97
-92.22
-42.16
11.86
67.32
120.70
168.15
205.92
231.23
242.88
241.69
230.13
211.34
188.15
162.10
133.68
102.99
70.70
38.60
9.25
-14.97
-32.92
-45.17
-53.65
-60.51
-67.15
-73.49
-78.36
-80.30
-78.43
-72.97
-64.99
-55.85
-46.52
-37.34
-28.21
-19.00
-9.89
-1.32
6.18
12.46
17.67
22.17
26.13
29.22
30.67
29.50
25.05
17.15
6.30
-6.66
-20.76
-35.21
-49.58
-63.72
-77.71
-91.64
-105.43
-118.58
-130.21
-139.11
-144.00
-143.85
-137.92
-125.81
-107.40
-82.84
-52.67
-18.13
18.65
54.68
86.45
110.75
125.52
130.43
126.96
117.81
106.08
94.39
84.54
77.51
73.66
72.93
74.81
78.39
82.40
85.54
86.95
86.48
84.73
82.57
80.73
79.33
77.95
75.80
72.17
66.73
59.65
51.49
43.00
34.84
27.35
20.49
13.93
7.27
0.27
-7.06
-14.35
-21.11
-26.80
-31.02
-33.48
-34.19
-33.27
-31.05
-27.94
-24.43
-21.02
-18.04
-15.65
-13.63
-11.57
-9.00
-5.62
-1.52
2.87
6.85
9.74
11.01
10.37
7.77
3.30
-2.74
-9.94
-17.61
-25.05
-31.54
-36.71
-40.55
-43.42
-45.92
-48.47
-51.29
-54.20
-56.80
-58.55
-58.96
-57.69
-54.53
-49.56
-42.98
-35.23
-26.85
-18.42
-10.45
-3.32
2.67
7.31
10.44
12.02
12.16
11.23
9.91
8.93
8.93
10.12
12.27
14.69
16.58
17.29
16.56
14.55
11.67
8.43
5.17
2.09
-0.79
-3.49
-6.04
-8.51
-10.98
-13.64
-16.60
-20.01
-23.81
-27.85
-31.82
-35.27
-37.68
-38.46
-37.21
-33.71
-28.16
-21.13
-13.43
-5.89
0.88
6.56
11.15
14.74
17.42
19.14
19.84
19.54
18.39
16.80
15.14
13.74
12.66
11.74
10.71
9.33
7.59
5.65
3.79
2.15
0.69
-0.86
-2.91
-5.78
-9.63
-14.35
-19.65
-25.09
-30.33
-35.14
-39.55
-43.86
-48.35
-53.19
-58.15
-62.53
-65.29
-65.46
-62.44
-56.24
-47.42
-36.77
-25.05
-12.89
-0.87
10.43
20.36
28.38
34.26
38.16
40.65
42.41
44.01
45.68
47.35
48.82
49.82
50.20
49.75
48.29
45.62
41.71
36.74
31.08
25.27
19.77
14.88
10.60
6.85
3.49
0.49
-2.04
-3.89
-4.85
-4.86
-3.91
-2.24
-0.09
2.22
4.44
6.45
8.23
9.88
11.52
13.25
15.11
17.12
19.28
21.54
23.89
26.21
28.49
30.69
32.85
35.03
37.22
39.30
40.97
41.94
41.98
41.11
39.54
37.65
35.85
34.38
33.37
32.76
32.43
32.11
31.49
30.19
27.85
24.27
19.47
13.78
7.66
1.64
-3.85
-8.62
-12.66
-16.15
-19.22
-22.04
-24.62
-27.00
-29.17
-31.18
-33.15
-35.15
-37.26
-39.36
-41.21
-42.38
-42.45
-41.09
-38.13
-33.67
-27.92
-21.27
-14.06
-6.67
0.57
7.26
13.00
17.41
20.17
21.21
20.67
19.03
16.92
15.01
13.86
13.73
14.63
16.30
18.36
20.37
22.00
23.07
23.49
23.27
22.36
20.79
18.47
15.40
11.55
7.00
1.85
-3.71
-9.39
-14.90
-19.86
-24.01
-27.17
-29.35
-30.70
-31.49
-32.04
-32.66
-33.63
-35.11
-37.03
-39.09
-40.72
-41.27
-40.21
-37.37
-33.00
-27.74
-22.40
-17.68
-13.99
-11.36
-9.61
-8.35
-7.19
-5.71
-3.59
-0.60
3.32
7.95
12.95
17.83
22.23
25.86
28.70
30.77
32.10
32.68
32.41
31.30
29.45
27.13
24.68
22.41
20.54
19.10
17.97
16.85
15.42
13.42
10.78
7.62
4.24
0.95
-2.05
-4.74
-7.31
-9.98
-12.91
-16.02
-18.99
-21.32
-22.44
-22.01
-19.89
-16.38
-12.01
-7.51
-3.59
-0.74
0.76
1.01
0.25
-1.12
-2.70
-4.14
-5.24
-5.94
-6.22
-6.23
-6.08
-6.00
-6.19
-6.89
-8.11
-9.58
-10.78
-11.07
-9.97
-7.38
-3.73
0.22
3.61
5.80
6.53
5.87
4.21
1.97
-0.38
-2.53
-4.24
-5.51
-6.53
-7.59
-9.06
-11.09
-13.61
-16.23
-18.29
-19.18
-18.43
-16.03
-12.28
-7.83
-3.30
0.80
4.28
7.12
9.41
11.22
12.52
13.31
13.57
13.45
13.12
12.68
12.23
11.74
11.16
10.50
9.83
9.21
8.63
8.03
7.26
6.23
4.92
3.44
1.91
0.38
-1.13
-2.70
-4.36
-6.12
-7.86
-9.49
-10.93
-12.17
-13.32
-14.45
-15.69
-17.11
-18.76
-20.55
-22.26
-23.51
-23.82
-22.78
-20.20
-16.27
-11.45
-6.42
-1.76
2.17
5.24
7.55
9.24
10.44
11.17
11.44
11.31
10.84
10.12
9.23
8.30
7.45
6.90
6.79
7.19
7.95
8.77
9.31
9.25
8.58
7.41
6.04
4.71
3.52
2.45
1.35
0.16
-1.19
-2.64
-4.15
-5.65
-7.09
-8.48
-9.79
-11.12
-12.54
-14.22
-16.21
-18.48
-20.75
-22.68
-23.89
-24.11
-23.27
-21.45
-18.85
-15.69
-12.15
-8.38
-4.53
-0.82
2.52
5.23
7.20
8.44
9.12
9.48
9.67
9.71
9.51
8.98
8.11
7.08
6.20
5.80
6.11
7.08
8.56
10.19
11.67
12.69
13.12
12.93
12.15
10.87
9.15
7.03
4.58
1.95
-0.60
-2.85
-4.57
-5.82
-6.75
-7.74
-9.07
-10.93
-13.32
-16.09
-19.01
-21.80
-24.16
-25.70
-26.12
-25.13
-22.73
-19.11
-14.69
-9.95
-5.30
-1.07
2.62
5.70
8.17
10.02
11.25
11.94
12.19
12.16
12.02
11.87
11.74
11.65
11.62
11.64
11.73
11.86
11.96
11.89
11.54
10.81
9.69
8.21
6.47
4.58
2.68
0.94
-0.51
-1.64
-2.53
-3.43
-4.55
-6.06
-7.91
-9.96
-11.98
-13.86
-15.63
-17.46
-19.52
-21.91
-24.64
-27.48
-30.11
-32.13
-33.07
-32.61
-30.55
-26.97
-22.15
-16.55
-10.64
-4.82
0.60
5.47
9.66
13.13
15.82
17.74
18.92
19.46
19.49
19.19
18.75
18.27
17.89
17.65
17.59
17.69
17.91
18.10
18.09
17.67
16.65
15.05
13.04
10.96
9.16
7.84
7.03
6.54
6.07
5.27
3.96
2.05
-0.41
-3.23
-6.15
-8.85
-11.06
-12.65
-13.78
-14.83
-16.34
-18.74
-22.06
-25.95
-29.64
-32.28
-33.17
-31.97
-28.75
-23.92
-18.10
-11.96
-6.10
-0.92
3.49
7.25
10.66
13.95
17.16
20.05
22.19
23.26
23.15
22.13
20.67
19.31
18.41
18.07
18.10
18.21
18.16
17.85
17.37
16.86
16.42
16.05
15.64
15.01
14.05
12.77
11.21
9.52
7.78
6.06
4.35
2.67
0.99
-0.73
-2.53
-4.55
-6.87
-9.65
-12.96
-16.81
-21.02
-25.19
-28.80
-31.19
-31.86
-30.51
-27.25
-22.46
-16.69
-10.50
-4.26
1.75
7.39
12.43
16.62
19.57
21.07
21.12
20.02
18.37
16.71
15.52
14.86
14.65
14.63
14.60
14.51
14.36
14.18
13.90
13.40
12.57
11.38
9.85
8.05
6.02
3.70
1.04
-2.00
-5.33
-8.80
-12.19
-15.34
-18.27
-21.08
-23.97
-27.09
-30.42
-33.60
-36.08
-37.24
-36.53
-33.79
-29.21
-23.32
-16.77
-10.13
-3.77
2.13
7.46
12.17
16.04
18.86
20.47
20.90
20.42
19.43
18.39
17.58
17.09
16.79
16.53
16.23
15.97
15.88
16.00
16.22
16.21
15.67
14.37
12.34
9.78
6.92
3.95
0.84
-2.44
-5.95
-9.62
-13.31
-16.88
-20.33
-23.82
-27.58
-31.86
-36.64
-41.61
-46.09
-49.23
-50.22
-48.62
-44.45
-38.18
-30.62
-22.52
-14.48
-6.76
0.58
7.50
13.92
19.55
24.14
27.43
29.40
30.20
30.11
29.50
28.65
27.80
27.06
26.55
26.25
26.18
26.23
26.21
25.92
25.07
23.45
20.93
17.61
13.77
9.80
6.13
3.01
0.56
-1.37
-2.96
-4.45
-6.01
-7.70
-9.64
-11.93
-14.79
-18.40
-22.91
-28.26
-34.15
-40.02
-45.06
-48.48
-49.60
-48.10
-44.03
-37.85
-30.21
-21.80
-13.23
-4.84
3.20
10.83
17.97
24.41
29.82
33.86
36.33
37.24
36.91
35.78
34.32
32.92
31.77
30.95
30.44
30.22
30.22
30.41
30.66
30.80
30.67
30.11
29.02
27.38
25.22
22.64
19.80
16.87
14.01
11.34
8.85
6.46
3.99
1.26
-1.86
-5.39
-9.17
-12.98
-16.56
-19.79
-22.67
-25.45
-28.50
-32.18
-36.62
-41.66
-46.77
-51.13
-53.94
-54.49
-52.50
-48.09
-41.69
-33.95
-25.44
-16.68
-8.01
0.31
8.08
15.10
21.17
26.15
29.99
32.77
34.61
35.68
36.15
36.13
35.77
35.18
34.55
33.98
33.58
33.33
33.14
32.88
32.41
31.66
30.57
29.16
27.44
25.42
23.15
20.73
18.30
16.03
14.07
12.39
10.90
9.37
7.56
5.30
2.52
-0.66
-4.12
-7.62
-10.96
-13.96
-16.54
-18.76
-20.88
-23.30
-26.45
-30.65
-35.87
-41.68
-47.24
-51.54
-53.66
-53.01
-49.56
-43.70
-36.13
-27.59
-18.69
-9.85
-1.31
6.69
14.00
20.34
25.57
29.55
32.33
34.06
34.96
35.31
35.28
35.04
34.66
34.20
33.67
33.11
32.50
31.84
31.14
30.34
29.44
28.40
27.20
25.85
24.33
22.63
20.71
18.56
16.11
13.43
10.60
7.83
5.33
3.20
1.43
-0.20
-1.93
-3.97
-6.39
-9.09
-11.91
-14.65
-17.31
-19.91
-22.65
-25.68
-29.19
-33.22
-37.69
-42.30
-46.45
-49.41
-50.41
-48.95
-44.90
-38.63
-30.83
-22.32
-13.82
-5.76
1.67
8.46
14.56
19.88
24.20
27.35
29.33
30.30
30.62
30.63
30.59
30.58
30.49
30.22
29.70
29.07
28.46
28.06
27.87
27.73
27.41
26.64
25.33
23.49
21.37
19.22
17.28
15.55
13.87
11.93
9.41
6.17
2.26
-1.99
-6.20
-9.99
-13.20
-15.87
-18.13
-20.16
-21.95
-23.48
-24.72
-25.84
-27.23
-29.28
-32.19
-35.74
-39.27
-41.86
-42.63
-41.07
-37.13
-31.18
-23.86
-15.80
-7.51
0.65
8.45
15.64
21.90
26.86
30.11
31.45
30.91
28.91
26.10
23.20
20.76
19.00
17.88
17.20
16.88
16.88
17.26
17.98
18.77
19.28
19.05
17.86
15.71
12.88
9.71
6.53
3.48
0.56
-2.29
-5.10
-7.81
-10.36
-12.64
-14.58
-16.24
-17.76
-19.34
-21.21
-23.64
-26.83
-30.89
-35.68
-40.76
-45.43
-48.73
-49.88
-48.32
-44.08
-37.64
-29.84
-21.61
-13.68
-6.51
-0.19
5.34
10.26
14.61
18.33
21.26
23.22
24.22
24.40
24.12
23.70
23.42
23.34
23.38
23.44
23.44
23.44
23.44
23.45
23.28
22.65
21.28
19.01
16.01
12.57
9.18
6.15
3.54
1.17
-1.32
-4.17
-7.49
-10.99
-14.33
-17.16
-19.41
-21.29
-23.25
-25.82
-29.31
-33.81
-38.99
-44.31
-48.97
-52.19
-53.35
-52.09
-48.44
-42.70
-35.46
-27.28
-18.71
-10.21
-2.06
5.48
12.29
18.22
23.28
27.40
30.58
32.79
33.99
34.25
33.67
32.48
30.90
29.22
27.67
26.46
25.71
25.40
25.38
25.32
24.92
23.88
22.12
19.76
17.02
14.20
11.44
8.86
6.34
3.82
1.20
-1.61
-4.66
-8.04
-11.72
-15.60
-19.43
-22.94
-25.94
-28.44
-30.77
-33.44
-36.94
-41.42
-46.59
-51.51
-55.09
-56.25
-54.39
-49.55
-42.29
-33.58
-24.36
-15.41
-7.12
0.41
7.27
13.64
19.55
24.96
29.61
33.25
35.69
36.89
37.04
36.42
35.39
34.16
32.94
31.82
30.92
30.33
30.09
30.12
30.12
29.76
28.69
26.85
24.36
21.53
18.67
15.95
13.38
10.87
8.37
5.83
3.30
0.73
-2.01
-5.09
-8.60
-12.40
-16.23
-19.70
-22.66
-25.17
-27.61
-30.46
-34.06
-38.49
-43.43
-48.31
-52.27
-54.52
-54.39
-51.53
-46.04
-38.39
-29.38
-19.81
-10.35
-1.39
6.93
14.50
21.19
26.70
30.82
33.35
34.38
34.21
33.22
31.84
30.37
29.03
27.92
27.17
26.84
26.88
27.11
27.27
27.09
26.43
25.35
24.08
22.84
21.74
20.70
19.51
18.00
16.13
14.01
11.81
9.56
7.15
4.37
1.05
-2.76
-6.80
-10.69
-14.14
-17.09
-19.70
-22.32
-25.28
-28.87
-33.18
-38.14
-43.45
-48.57
-52.70
-55.01
-54.79
-51.68
-45.87
-38.03
-29.06
-19.83
-10.97
-2.74
4.85
11.79
18.01
23.23
27.16
29.64
30.70
30.68
30.01
29.15
28.40
27.93
27.72
27.74
27.95
28.27
28.60
28.78
28.68
28.15
27.17
25.75
23.98
22.01
19.91
17.81
15.72
13.69
11.64
9.52
7.20
4.57
1.58
-1.77
-5.34
-8.97
-12.48
-15.79
-18.88
-21.80
-24.67
-27.59
-30.69
-33.99
-37.53
-41.12
-44.41
-46.86
-47.89
-47.09
-44.26
-39.55
-33.29
-25.96
-18.00
-9.76
-1.58
6.29
13.51
19.85
25.02
28.84
31.22
32.10
31.62
30.00
27.70
25.17
22.95
21.38
20.59
20.53
20.96
21.63
22.28
22.73
22.84
22.57
21.86
20.71
19.20
17.39
15.42
13.33
11.17
8.83
6.23
3.27
-0.08
-3.63
-7.15
-10.29
-12.89
-14.97
-16.84
-18.91
-21.61
-25.16
-29.40
-33.96
-38.20
-41.40
-42.89
-42.20
-39.16
-33.94
-27.08
-19.28
-11.31
-3.74
3.07
9.02
14.13
18.36
21.64
23.79
24.74
24.47
23.18
21.13
18.60
15.94
13.45
11.46
10.21
9.80
10.16
10.96
11.82
12.31
12.23
11.49
10.16
8.31
5.98
3.22
0.11
-3.12
-6.24
-8.99
-11.28
-13.11
-14.65
-16.12
-17.77
-19.94
-22.96
-27.03
-32.10
-37.66
-42.78
-46.27
-47.11
-44.73
-39.30
-31.54
-22.50
-13.16
-4.27
3.74
10.60
16.12
20.19
22.78
24.06
24.35
24.03
23.42
22.65
21.79
20.78
19.67
18.53
17.52
16.69
16.02
15.39
14.58
13.44
11.86
9.87
7.51
4.87
2.00
-1.09
-4.32
-7.64
-10.93
-14.12
-17.26
-20.53
-24.25
-28.67
-33.91
-39.76
-45.66
-50.77
-54.21
-55.23
-53.46
-49.07
-42.59
-34.81
-26.43
-18.00
-9.72
-1.67
6.05
13.26
19.61
24.79
28.60
31.08
32.42
32.94
32.95
32.59
32.00
31.18
30.21
29.14
28.00
26.83
25.54
24.08
22.32
20.27
17.89
15.24
12.34
9.19
5.81
2.21
-1.51
-5.26
-8.91
-12.45
-15.91
-19.45
-23.29
-27.62
-32.58
-38.16
-44.10
-49.88
-54.74
-57.81
-58.35
-55.99
-50.85
-43.52
-34.75
-25.30
-15.68
-6.17
3.12
12.04
20.28
27.49
33.27
37.40
39.88
40.94
41.03
40.59
40.03
39.50
39.02
38.39
37.50
36.32
34.99
33.72
32.64
31.65
30.45
28.74
26.32
23.32
20.12
17.12
14.64
12.56
10.54
8.09
4.85
0.77
-3.95
-8.88
-13.66
-17.96
-21.76
-25.21
-28.62
-32.36
-36.78
-42.03
-47.99
-54.17
-59.70
-63.56
-64.77
-62.76
-57.53
-49.68
-40.24
-30.24
-20.53
-11.44
-2.97
5.09
12.84
20.13
26.64
31.96
35.88
38.36
39.60
39.92
39.56
38.74
37.52
36.03
34.46
33.14
32.36
32.30
32.92
33.89
34.77
35.15
34.84
33.91
32.61
31.17
29.63
27.78
25.25
21.77
17.30
12.20
7.06
2.49
-1.12
-3.82
-5.94
-8.04
-10.48
-13.37
-16.47
-19.41
-21.97
-24.15
-26.26
-28.68
-31.76
-35.60
-40.08
-44.90
-49.62
-53.70
-56.51
-57.47
-56.10
-52.27
-46.22
-38.53
-29.92
-21.02
-12.30
-4.00
3.72
10.68
16.68
21.49
24.95
26.98
27.69
27.25
25.96
24.13
22.05
20.01
18.23
16.92
16.25
16.39
17.42
19.32
21.84
24.59
27.07
28.86
29.64
29.31
27.94
25.68
22.74
19.34
15.67
11.92
8.21
4.68
1.44
-1.37
-3.62
-5.22
-6.17
-6.67
-7.03
-7.64
-8.81
-10.71
-13.33
-16.61
-20.50
-24.95
-29.98
-35.43
-40.97
-46.03
-49.93
-51.98
-51.73
-49.04
-44.10
-37.39
-29.53
-21.10
-12.58
-4.26
3.65
11.04
17.66
23.27
27.64
30.72
32.66
33.83
34.63
35.27
35.73
35.75
35.06
33.53
31.39
29.10
27.16
25.83
24.84
23.56
21.15
17.06
11.25
4.33
-2.70
-8.95
-13.98
-18.14
-22.27
-27.32
-33.75
-41.21
-48.62
-54.67
-58.62
-60.70
-62.20
-64.84
-70.13
-78.74
-90.50
-104.79
-120.80
-137.61
-153.81
-167.53
-177.00
-181.70
-183.30
-185.58
-192.93
-207.94
-229.83
-254.44
-276.25
-290.96
-297.15
-296.17
-290.27
-280.80
-267.42
-249.01
-225.20
-197.58
-169.28
-143.46
-121.69
-103.10
-85.03
-64.53
-39.80
-10.89
20.88
53.90
87.33
121.52
157.76
197.68
242.77
294.14
352.27
416.59
484.82
552.51
613.51
661.50
692.05
704.21
700.78
686.68
666.68
643.56
617.92
589.46
558.42
526.14
494.11
462.50
429.29
391.06
344.98
290.79
231.48
172.13
117.84
71.56
33.51
1.87
-25.75
-51.05
-74.63
-96.44
-116.41
-134.98
-153.22
-172.55
-194.34
-219.28
-246.79
-274.89
-300.36
-319.76
-330.45
-331.61
-324.44
-311.49
-295.59
-278.85
-262.33
-246.25
-230.60
-215.50
-201.23
-187.99
-175.63
-163.70
-151.78
-139.83
-128.23
-117.72
-108.88
-101.99
-96.76
-92.54
-88.60
-84.35
-79.64
-74.66
-69.94
-65.97
-63.06
-61.13
-59.72
-58.17
-55.91
-52.74
-48.86
-44.87
-41.52
-39.45
-39.09
-40.40
-42.93
-45.85
-48.15
-48.84
-47.30
-43.38
-37.46
-30.21
-22.35
-14.46
-6.92
0.05
6.24
11.47
15.60
18.69
20.90
22.49
23.61
24.35
24.73
24.79
24.68
24.54
24.41
24.21
23.81
23.09
22.15
21.18
20.36
19.74
19.10
18.22
16.86
15.01
12.87
10.65
8.52
6.43
4.26
1.81
-0.97
-4.07
-7.41
-10.87
-14.34
-17.69
-20.78
-23.40
-25.49
-27.17
-28.80
-30.84
-33.65
-37.15
-40.72
-43.32
-43.78
-41.38
-36.02
-28.40
-19.68
-10.97
-3.08
3.78
9.70
14.90
19.44
23.18
25.97
27.72
28.64
28.96
28.99
28.87
28.65
28.28
27.76
27.17
26.61
26.24
26.06
25.99
25.86
25.45
24.54
23.00
20.87
18.29
15.57
12.99
10.81
9.05
7.57
6.06
4.14
1.56
-1.78
-5.69
-9.79
-13.59
-16.74
-19.11
-20.88
-22.51
-24.46
-27.10
-30.45
-34.25
-37.96
-40.85
-42.21
-41.47
-38.41
-33.18
-26.28
-18.37
-10.11
-1.95
5.86
13.18
19.85
25.60
30.11
33.13
34.57
34.63
33.69
32.21
30.59
29.17
28.11
27.44
27.09
26.92
26.82
26.65
26.35
25.76
24.81
23.37
21.42
19.09
16.62
14.33
12.47
11.12
10.13
9.23
8.07
6.34
3.99
1.11
-1.98
-4.95
-7.55
-9.75
-11.72
-13.70
-15.89
-18.31
-20.92
-23.58
-26.17
-28.51
-30.28
-31.03
-30.23
-27.54
-22.94
-16.83
-9.88
-2.81
3.79
9.56
14.33
17.99
20.48
21.82
22.11
21.60
20.65
19.63
18.86
18.51
18.63
19.13
19.84
20.55
21.03
21.09
20.61
19.54
17.96
16.07
14.12
12.37
11.05
10.19
9.68
9.24
8.66
7.76
6.53
5.13
3.71
2.50
1.56
0.92
0.40
-0.26
-1.34
-3.10
-5.68
-9.05
-13.01
-17.19
-21.06
-24.02
-25.47
-24.94
-22.32
-17.78
-11.94
-5.51
0.76
6.37
11.06
14.79
17.63
19.58
20.66
20.82
20.17
18.86
17.14
15.28
13.45
11.70
10.00
8.31
6.63
5.02
3.52
2.09
0.55
-1.28
-3.51
-6.08
-8.77
-11.28
-13.34
-14.80
-15.61
-15.79
-15.35
-14.18
-12.22
-9.45
-6.00
-2.16
1.73
5.26
8.17
10.19
11.23
11.21
10.22
8.52
6.64
5.30
5.19
6.83
10.28
15.16
20.75
26.29
31.18
35.14
38.21
40.53
42.27
43.38
43.69
42.92
40.83
37.35
32.54
26.69
20.11
13.17
6.24
-0.28
-6.03
-10.75
-14.25
-16.60
-17.97
-18.68
-19.08
-19.51
-20.26
-21.50
-23.23
-25.29
-27.48
-29.65
-31.80
-34.13
-36.86
-40.08
-43.60
-47.16
-50.40
-53.19
-55.51
-57.39
-58.72
-59.15
-58.23
-55.60
-51.20
-45.33
-38.54
-31.40
-24.33
-17.60
-11.25
-5.36
0.03
4.77
8.66
11.51
13.15
13.60
13.02
11.75
10.19
8.70
7.50
6.62
6.00
5.54
5.22
5.05
5.11
5.42
5.89
6.39
6.72
6.73
6.30
5.42
4.08
2.30
0.07
-2.64
-5.83
-9.51
-13.55
-17.68
-21.44
-24.23
-25.46
-24.69
-21.91
-17.42
-11.94
-6.24
-0.98
3.50
7.17
10.18
12.73
14.84
16.49
17.53
17.96
17.84
17.41
16.89
16.48
16.28
16.21
16.16
15.95
15.47
14.70
13.68
12.57
11.44
10.35
9.13
7.65
5.75
3.41
0.82
-1.75
-4.06
-6.01
-7.69
-9.34
-11.25
-13.63
-16.52
-19.74
-22.97
-25.71
-27.48
-27.79
-26.40
-23.32
-18.86
-13.50
-7.71
-1.98
3.41
8.26
12.47
15.96
18.61
20.39
21.23
21.24
20.58
19.55
18.46
17.56
16.97
16.59
16.28
15.86
15.30
14.59
13.82
12.99
12.03
10.85
9.36
7.60
5.67
3.75
1.94
0.34
-1.07
-2.39
-3.74
-5.31
-7.18
-9.45
-12.06
-14.98
-18.19
-21.60
-25.12
-28.43
-31.07
-32.50
-32.36
-30.53
-27.18
-22.60
-16.93
-10.20
-2.32
6.62
16.23
25.75
34.28
41.03
45.62
48.14
49.03
48.95
48.44
47.87
47.42
47.08
46.84
46.68
46.67
46.79
46.92
46.78
45.93
43.98
40.67
35.99
30.19
23.71
17.07
10.77
5.19
0.48
-3.32
-6.35
-8.75
-10.70
-12.37
-14.04
-16.03
-18.58
-21.72
-25.02
-27.79
-29.23
-28.85
-26.68
-23.27
-19.51
-16.19
-13.87
-12.77
-12.95
-14.47
-17.39
-21.64
-26.73
-31.72
-35.26
-36.10
-33.55
-27.91
-20.50
-13.26
-8.16
-6.45
-8.36
-13.07
-19.27
-25.62
-31.29
-36.12
-40.37
-44.47
-48.65
-52.95
-57.27
-61.62
-66.26
-71.70
-78.58
-87.48
-98.72
-112.31
-127.86
-144.66
-161.76
-178.11
-192.73
-204.98
-214.55
-221.59
-226.67
-230.60
-234.33
-238.63
-243.68
-248.87
-252.79
-253.70
-250.24
-242.17
-230.56
-217.31
-204.16
-191.73
-179.13
-164.41
-145.61
-121.85
-93.73
-62.98
-31.63
-1.05
28.38
57.10
85.74
114.72
144.20
174.21
204.95
236.44
268.18
298.53
324.93
344.61
355.71
358.16
353.65
344.87
334.37
323.79
313.76
304.51
296.45
290.39
287.27
287.51
290.72
295.70
301.00
305.41
308.33
309.71
309.67
308.19
304.86
299.03
290.13
278.14
263.95
249.20
235.82
225.12
217.29
211.37
205.88
199.60
192.03
183.19
172.99
160.85
145.73
126.92
104.88
81.49
59.65
42.02
30.00
23.21
19.86
17.64
14.60
9.70
2.71
-6.22
-16.94
-29.49
-44.16
-61.26
-80.99
-103.45
-128.68
-156.71
-187.14
-218.82
-249.46
-275.90
-294.86
-304.14
-303.45
-294.47
-280.19
-263.63
-246.96
-231.09
-216.06
-201.73
-188.15
-175.67
-164.55
-154.66
-145.40
-136.03
-126.07
-115.53
-104.97
-95.23
-87.06
-80.72
-76.02
-72.29
-68.78
-64.90
-60.46
-55.68
-50.90
-46.43
-42.25
-38.09
-33.63
-28.64
-23.27
-17.90
-13.15
-9.44
-6.95
-5.58
-5.02
-5.06
-5.60
-6.75
-8.55
-10.91
-13.49
-15.78
-17.35
-17.95
-17.60
-16.40
-14.49
-11.82
-8.30
-3.86
1.39
7.15
13.10
18.98
24.70
30.18
35.29
39.69
42.93
44.63
44.60
43.03
40.34
37.20
34.24
31.99
30.68
30.19
30.10
29.70
28.37
25.61
21.36
15.96
9.95
3.94
-1.73
-6.86
-11.48
-15.60
-19.17
-22.12
-24.35
-25.92
-26.95
-27.59
-27.84
-27.57
-26.58
-24.83
-22.52
-20.17
-18.50
-18.09
-19.24
-21.83
-25.40
-29.25
-32.64
-34.99
-35.88
-35.19
-33.00
-29.71
-25.79
-21.80
-18.19
-15.26
-13.10
-11.62
-10.69
-10.16
-9.94
-9.95
-10.07
-10.11
-9.83
-9.07
-7.73
-5.94
-3.95
-2.05
-0.54
0.38
0.53
-0.10
-1.46
-3.23
-4.95
-6.10
-6.36
-5.76
-4.64
-3.57
-2.94
-2.92
-3.32
-3.87
-4.44
-5.06
-5.97
-7.37
-9.35
-11.78
-14.51
-17.38
-20.27
-23.03
-25.39
-26.94
-27.28
-26.12
-23.45
-19.53
-14.79
-9.73
-4.80
-0.30
3.50
6.47
8.61
10.00
10.83
11.24
11.35
11.16
10.70
10.03
9.28
8.61
8.12
7.85
7.71
7.63
7.53
7.41
7.26
7.05
6.69
6.01
4.93
3.40
1.55
-0.50
-2.59
-4.67
-6.74
-8.86
-11.11
-13.53
-16.22
-19.21
-22.46
-25.86
-29.07
-31.65
-33.02
-32.73
-30.57
-26.72
-21.67
-16.03
-10.37
-4.97
0.06
4.77
9.13
13.00
16.15
18.39
19.70
20.15
20.01
19.50
18.85
18.19
17.66
17.30
17.15
17.15
17.15
17.08
16.84
16.44
15.89
15.17
14.19
12.83
11.05
8.86
6.41
3.86
1.36
-1.01
-3.28
-5.47
-7.66
-9.93
-12.38
-15.11
-18.22
-21.65
-25.15
-28.30
-30.51
-31.28
-30.24
-27.44
-23.17
-17.90
-12.14
-6.21
-0.35
5.34
10.68
15.47
19.45
22.41
24.29
25.12
25.10
24.43
23.41
22.27
21.27
20.57
20.20
20.12
20.19
20.24
20.14
19.85
19.31
18.51
17.42
16.03
14.37
12.52
10.64
8.79
7.01
5.28
3.59
1.97
0.45
-0.86
-2.02
-3.15
-4.52
-6.49
-9.31
-13.10
-17.61
-22.31
-26.39
-29.02
-29.60
-27.92
-24.31
-19.40
-13.90
-8.39
-3.11
1.91
6.71
11.27
15.40
18.74
21.03
22.11
22.13
21.45
20.50
19.70
19.27
19.26
19.58
20.13
20.76
21.27
21.32
20.48
18.41
15.05
10.82
6.49
2.88
0.54
-0.49
-0.62
-0.46
-0.52
-1.03
-1.98
-3.23
-4.62
-6.07
-7.52
-8.89
-10.23
-11.64
-13.32
-15.42
-17.90
-20.44
-22.50
-23.50
-22.99
-20.81
-17.12
-12.22
-6.50
-0.28
6.11
12.36
18.05
22.78
26.13
27.85
27.89
26.41
23.80
20.53
17.16
14.23
12.19
11.28
11.49
12.57
14.09
15.67
16.97
17.91
18.44
18.61
18.39
17.77
16.82
15.66
14.55
13.73
13.34
13.30
13.36
13.16
12.32
10.65
8.13
5.04
1.78
-1.07
-3.03
-3.75
-3.20
-1.67
0.36
2.28
3.67
4.32
4.33
3.94
3.37
2.78
2.17
1.48
0.60
-0.47
-1.69
-2.93
-4.02
-4.82
-5.27
-5.49
-5.64
-5.96
-6.54
-7.34
-8.26
-9.20
-10.24
-11.54
-13.36
-15.74
-18.58
-21.61
-24.53
-27.21
-29.54
-31.54
-33.25
-34.82
-36.51
-38.68
-41.65
-45.38
-49.45
-52.95
-54.97
-54.80
-52.34
-48.00
-42.49
-36.55
-30.57
-24.72
-18.96
-13.31
-7.91
-3.00
1.17
4.48
6.98
8.89
10.54
12.30
14.44
17.16
20.47
24.17
27.95
31.45
34.40
36.67
38.21
38.85
38.25
35.89
31.23
24.08
14.73
3.98
-7.16
-17.80
-27.49
-36.34
-44.77
-53.36
-62.43
-72.16
-82.55
-93.69
-105.75
-118.88
-133.03
-147.81
-162.60
-176.79
-190.17
-202.95
-215.53
-228.06
-239.96
-250.02
-256.76
-259.19
-257.22
-251.65
-243.61
-233.90
-222.66
-209.51
-194.13
-176.78
-158.49
-140.78
-124.97
-111.72
-100.70
-90.86
-80.87
-69.57
-56.36
-41.20
-24.50
-6.71
11.87
31.32
52.09
74.77
99.95
128.11
159.60
194.41
231.86
270.07
305.99
335.89
356.54
366.48
366.67
360.16
350.83
341.84
334.65
329.03
323.88
318.32
312.30
306.47
301.56
297.69
294.26
290.24
284.81
277.81
269.85
262.08
255.54
250.79
247.72
245.73
244.15
242.59
241.07
239.90
239.61
240.68
243.44
248.03
254.25
261.55
268.77
274.11
275.22
269.69
255.56
232.08
200.05
161.75
120.48
79.65
42.07
9.34
-18.11
-40.71
-59.25
-74.46
-86.92
-97.10
-105.57
-112.98
-120.04
-127.42
-135.68
-145.32
-156.94
-171.10
-188.06
-207.28
-227.10
-244.98
-258.09
-264.30
-262.93
-254.91
-242.31
-227.53
-212.52
-198.44
-185.76
-174.54
-164.72
-156.10
-148.33
-140.93
-133.33
-125.17
-116.42
-107.27
-98.12
-89.32
-81.09
-73.50
-66.57
-60.19
-54.24
-48.57
-43.02
-37.51
-32.14
-27.19
-23.00
-19.90
-17.99
-17.10
-16.93
-17.26
-18.19
-20.20
-23.91
-29.61
-36.91
-44.61
-50.96
-54.35
-53.88
-49.73
-42.93
-34.81
-26.40
-18.10
-9.83
-1.46
6.71
13.87
18.86
20.73
19.14
14.64
8.49
2.26
-2.68
-5.55
-6.29
-5.51
-4.13
-3.06
-2.96
-4.00
-6.09
-8.99
-12.51
-16.58
-21.22
-26.38
-31.77
-36.95
-41.35
-44.53
-46.36
-47.16
-47.60
-48.41
-50.24
-53.27
-57.33
-61.86
-66.15
-69.46
-71.18
-70.95
-68.60
-64.32
-58.52
-51.87
-44.95
-38.24
-31.89
-25.76
-19.72
-13.63
-7.68
-2.20
2.38
5.75
7.81
8.72
8.81
8.45
7.99
7.71
7.84
8.44
9.45
10.60
11.49
11.75
11.14
9.76
7.89
6.00
4.51
3.62
3.32
3.42
3.73
4.03
4.21
4.13
3.67
2.74
1.26
-0.71
-3.06
-5.60
-8.15
-10.52
-12.65
-14.54
-16.29
-18.11
-20.17
-22.66
-25.62
-28.99
-32.50
-35.87
-38.81
-40.96
-42.04
-41.75
-39.93
-36.53
-31.78
-26.07
-19.83
-13.48
-7.22
-1.17
4.64
10.07
14.93
18.97
21.98
23.89
24.75
24.80
24.32
23.64
22.99
22.58
22.48
22.67
23.08
23.60
24.17
24.68
25.05
25.15
24.83
24.00
22.64
20.92
19.02
17.19
15.56
14.17
12.98
11.90
10.85
9.84
8.90
8.09
7.43
6.89
6.43
5.98
5.50
4.99
4.49
4.03
3.64
3.34
3.10
2.90
2.72
2.52
2.32
2.14
1.98
1.87
1.79
1.75
1.71
1.68
1.64
1.59
1.54
1.51
1.49
1.48
1.47
1.46
1.45
1.44
1.43
1.42
1.41
1.41
1.42
1.42
1.42
1.43
1.42
1.42
1.41
1.41
1.40
1.40
1.39
1.39
1.38
1.38
1.37
1.36
1.36
1.35
1.35
1.34
1.34
1.33
1.32
1.32
1.31
1.31
1.30
1.30
1.29
1.29
1.28
1.28
1.27
1.27
1.26
1.26
1.25
1.24
1.24
1.23
1.23
1.22
1.22
1.21
1.21
1.20
1.20
1.19
1.19
1.18
1.18
1.17
1.17
1.16
1.16
1.16
1.15
1.15
1.14
1.14
1.13
1.13
1.12
1.12
1.11
1.11
1.10
1.10
1.09
1.09
1.09
1.08
1.08
1.07
1.07
1.06
1.06
1.06
1.05
1.05
1.04
1.04
1.03
1.03
1.02
1.02
1.02
1.01
1.01
1.00
1.00
0.99
0.99
0.99
0.98
0.98
0.98
0.97
0.97
0.96
0.96
0.96
0.95
0.95
0.94
0.94
0.93
0.93
0.93
0.92
0.92
0.92
0.91
0.91
0.90
0.90
0.90
0.89
0.89
0.89
0.88
0.88
0.87
0.87
0.87
0.86
0.86
0.86
0.85
0.85
0.85
0.84
0.84
0.83
0.83
0.83
0.83
0.82
0.82
0.82
0.81
0.81
0.81
0.80
0.80
0.80
0.79
0.79
0.79
0.79
0.78
0.78
0.79
0.79
0.80
0.81
0.81
0.80
0.77
0.75
0.71
0.69
0.67
0.65
0.63
0.61
0.57
0.53
0.48
0.44
0.41
0.40
0.39
0.39
0.37
0.33
0.25
0.16
0.08
0.03
0.01
0.02
0.02
-0.02
-0.13
-0.31
-0.53
-0.74
-0.89
-0.96
-0.99
-1.02
-1.14
-1.41
-1.81
-2.29
-2.74
-3.10
-3.32
-3.44
-3.57
-3.85
-4.33
-5.03
-5.84
-6.63
-7.32
-7.87
-8.34
-8.81
-9.39
-10.19
-11.36
-13.03
-15.27
-17.93
-20.59
-22.61
-23.34
-22.43
-19.94
-16.28
-12.08
-7.80
-3.65
0.43
4.52
8.65
12.58
15.96
18.51
20.12
20.92
21.16
21.13
21.01
20.93
20.91
21.02
21.30
21.81
22.52
23.30
23.97
24.26
23.99
23.16
21.86
20.34
18.84
17.54
16.47
15.52
14.49
13.13
11.25
8.78
5.86
2.74
-0.23
-2.79
-4.84
-6.51
-8.12
-9.98
-12.40
-15.41
-18.93
-22.65
-26.16
-28.96
-30.56
-30.54
-28.67
-25.05
-19.98
-13.98
-7.58
-1.23
4.75
10.14
14.73
18.38
21.00
22.62
23.42
23.64
23.59
23.47
23.37
23.27
23.07
22.65
21.99
21.13
20.16
19.19
18.26
17.36
16.39
15.35
14.20
13.00
11.82
10.62
9.35
7.90
6.23
4.33
2.25
0.05
-2.23
-4.57
-6.99
-9.42
-11.86
-14.33
-16.95
-19.91
-23.27
-26.91
-30.39
-33.08
-34.32
-33.70
-31.16
-27.00
-21.80
-16.13
-10.46
-5.05
-0.02
4.60
8.67
11.98
14.32
15.57
15.87
15.47
14.76
14.07
13.56
13.25
13.03
12.83
12.64
12.52
12.51
12.59
12.64
12.48
11.95
10.94
9.47
7.62
5.56
3.47
1.49
-0.36
-2.20
-4.21
-6.57
-9.27
-12.15
-14.83
-16.97
-18.46
-19.45
-20.40
-21.79
-24.06
-27.28
-31.27
-35.53
-39.44
-42.37
-43.79
-43.44
-41.29
-37.57
-32.71
-27.17
-21.43
-15.81
-10.56
-5.76
-1.40
2.60
6.26
9.55
12.38
14.55
15.94
16.51
16.45
16.03
15.61
15.48
15.73
16.37
17.20
18.07
18.75
19.16
19.20
18.83
18.07
16.92
15.48
13.84
12.15
10.49
8.92
7.40
5.84
4.15
2.21
0.07
-2.22
-4.52
-6.76
-8.86
-10.83
-12.76
-14.71
-16.80
-19.14
-21.87
-25.00
-28.44
-31.90
-34.85
-36.72
-37.04
-35.63
-32.63
-28.41
-23.46
-18.13
-12.63
-7.01
-1.37
4.15
9.22
13.49
16.65
18.60
19.55
19.82
19.82
19.82
19.97
20.23
20.53
20.84
21.14
21.52
21.99
22.55
23.10
23.52
23.70
23.54
23.03
22.17
21.02
19.63
18.04
16.30
14.48
12.66
10.90
9.26
7.63
5.93
4.02
1.90
-0.31
-2.47
-4.44
-6.23
-7.97
-9.87
-12.09
-14.73
-17.78
-21.20
-24.91
-28.70
-32.17
-34.73
-35.79
-34.92
-32.11
-27.72
-22.36
-16.64
-10.99
-5.59
-0.48
4.32
8.72
12.59
15.79
18.26
20.04
21.27
22.09
22.63
22.99
23.21
23.34
23.35
23.30
23.22
23.18
23.22
23.35
23.52
23.55
23.27
22.52
21.28
19.62
17.79
16.02
14.46
13.13
11.91
10.65
9.22
7.61
5.87
4.07
2.23
0.32
-1.69
-3.79
-5.89
-7.96
-10.05
-12.36
-15.18
-18.66
-22.69
-26.82
-30.36
-32.59
-33.01
-31.49
-28.24
-23.78
-18.62
-13.28
-8.01
-2.98
1.75
6.07
9.76
12.59
14.27
14.77
14.25
13.12
11.91
11.05
10.83
11.22
12.16
13.37
14.73
16.10
17.37
18.44
19.14
19.28
18.68
17.30
15.17
12.50
9.61
6.79
4.30
2.13
0.21
-1.73
-3.84
-6.22
-8.79
-11.43
-14.11
-16.81
-19.68
-22.81
-26.31
-30.17
-34.22
-38.17
-41.49
-43.68
-44.24
-42.98
-40.00
-35.67
-30.53
-25.08
-19.71
-14.59
-9.84
-5.47
-1.55
1.78
4.37
6.14
7.14
7.49
7.46
7.27
7.09
6.98
6.96
7.04
7.27
7.74
8.43
9.22
9.80
9.87
9.22
7.86
6.00
3.88
1.72
-0.44
-2.67
-5.14
-7.95
-11.05
-14.33
-17.57
-20.59
-23.27
-25.56
-27.52
-29.32
-31.26
-33.64
-36.74
-40.59
-44.96
-49.19
-52.50
-54.07
-53.36
-50.31
-45.27
-38.84
-31.63
-24.07
-16.36
-8.60
-0.93
6.38
12.86
18.10
21.83
24.04
25.02
25.17
24.91
24.45
23.84
23.02
21.99
20.84
19.86
19.42
19.77
21.01
22.91
25.07
27.03
28.52
29.46
30.01
30.41
30.83
31.30
31.64
31.53
30.67
28.85
26.09
22.59
18.73
14.84
11.20
7.90
4.91
2.11
-0.74
-3.87
-7.50
-11.74
-16.52
-21.46
-25.99
-29.43
-31.16
-30.89
-28.72
-25.16
-20.91
-16.82
-13.56
-11.53
-10.70
-10.56
-10.33
-9.14
-6.44
-2.14
3.31
9.13
14.47
18.61
21.30
22.59
22.97
23.15
23.95
26.05
29.74
34.64
39.52
42.64
42.13
36.85
26.94
13.90
0.18
-11.85
-20.63
-25.97
-28.68
-30.06
-31.10
-32.19
-33.19
-33.73
-33.66
-33.01
-31.95
-30.57
-28.86
-26.71
-24.09
-21.04
-17.53
-13.48
-8.58
-2.47
5.15
14.26
24.56
35.44
46.09
55.73
63.68
69.51
72.98
74.11
73.06
70.07
65.38
59.16
51.61
42.86
33.08
22.37
10.71
-2.10
-16.54
-33.09
-52.10
-73.44
-96.37
-119.76
-142.34
-163.30
-182.46
-200.48
-218.56
-237.94
-259.39
-282.75
-306.95
-330.21
-350.54
-366.10
-375.55
-377.97
-372.84
-360.04
-339.89
-313.31
-281.80
-247.34
-211.87
-176.81
-142.69
-109.05
-74.73
-38.21
1.97
47.11
98.17
155.62
218.64
284.60
348.85
405.35
448.43
474.55
483.65
478.91
465.36
447.85
429.53
411.60
393.96
376.43
359.27
343.06
328.08
313.93
299.74
284.72
268.98
253.49
239.76
229.05
221.80
217.50
215.02
213.32
211.81
210.74
210.89
213.05
217.66
224.49
232.74
241.39
249.63
256.85
262.61
266.48
268.16
267.67
265.36
261.63
256.26
247.99
234.69
214.30
185.96
150.81
111.75
72.28
35.23
1.73
-28.49
-56.40
-82.69
-107.41
-130.30
-151.30
-170.98
-190.42
-210.93
-233.57
-258.66
-285.44
-311.93
-335.29
-352.49
-361.37
-361.31
-353.48
-340.31
-324.44
-307.85
-291.37
-275.05
-258.72
-242.58
-227.31
-213.63
-201.84
-191.52
-181.78
-171.78
-161.28
-150.81
-141.41
-134.10
-129.38
-127.06
-126.30
-126.13
-125.64
-124.33
-121.93
-118.34
-113.42
-107.06
-99.26
-90.22
-80.40
-70.26
-60.29
-50.74
-41.73
-33.36
-25.76
-19.22
-13.92
-9.99
-7.34
-5.69
-4.71
-4.06
-3.54
-3.03
-2.54
-2.06
-1.60
-1.19
-0.87
-0.77
-1.02
-1.71
-2.79
-4.07
-5.34
-6.54
-7.80
-9.41
-11.71
-14.74
-18.29
-21.90
-25.12
-27.75
-29.88
-31.91
-34.23
-37.20
-40.94
-45.48
-50.57
-55.82
-60.54
-63.92
-65.21
-63.88
-59.95
-53.76
-45.92
-37.06
-27.68
-18.20
-9.01
-0.58
6.69
12.52
16.85
19.85
21.70
22.55
22.57
22.00
21.35
21.26
22.31
24.72
28.21
31.96
34.97
36.40
35.88
33.52
29.80
25.37
20.81
16.55
12.81
9.70
7.24
5.45
4.36
3.96
4.16
4.70
5.19
5.13
4.15
2.06
-1.15
-5.20
-9.80
-14.60
-19.30
-23.53
-26.84
-28.72
-28.65
-26.30
-21.57
-14.73
-6.21
3.31
13.16
22.66
31.18
38.20
43.34
46.41
47.45
46.78
44.89
42.38
39.89
37.86
36.58
36.04
36.13
36.58
37.13
37.48
37.41
36.77
35.46
33.55
31.17
28.56
25.91
23.39
21.02
18.73
16.39
13.79
10.85
7.51
3.91
0.27
-3.21
-6.46
-9.61
-12.90
-16.58
-20.65
-24.78
-28.40
-30.80
-31.40
-29.85
-26.21
-20.78
-14.11
-6.80
0.56
7.53
13.86
19.40
24.09
27.78
30.34
31.66
31.85
31.23
30.29
29.52
29.20
29.37
29.85
30.44
30.91
31.22
31.37
31.35
31.09
30.45
29.40
27.95
26.29
24.60
23.00
21.46
19.73
17.57
14.79
11.47
7.89
4.44
1.41
-1.18
-3.50
-5.96
-8.93
-12.62
-16.96
-21.61
-26.01
-29.52
-31.58
-31.78
-30.03
-26.43
-21.32
-15.12
-8.33
-1.41
5.17
11.00
15.81
19.49
22.13
23.93
25.10
25.78
25.99
25.78
25.18
24.39
23.55
22.80
22.12
21.36
20.34
18.88
16.97
14.71
12.30
9.93
7.69
5.54
3.25
0.54
-2.81
-6.80
-11.21
-15.53
-19.21
-21.84
-23.31
-23.88
-24.02
-24.18
-24.63
-25.27
-25.77
-25.62
-24.35
-21.57
-17.05
-10.71
-2.60
7.03
17.75
28.89
39.71
49.53
57.88
64.55
69.52
72.79
74.16
73.25
69.62
63.25
54.81
45.77
37.99
32.97
31.21
31.81
32.93
32.58
29.52
23.85
16.84
10.38
6.09
4.76
6.18
9.47
13.45
17.16
20.03
21.86
22.69
22.67
21.92
20.65
19.12
17.77
17.06
17.30
18.39
19.77
20.50
19.65
16.70
11.77
5.67
-0.38
-5.07
-7.41
-6.90
-3.68
1.52
7.59
13.30
17.59
19.87
20.18
19.00
17.17
15.37
13.97
12.88
11.66
9.90
7.34
4.05
0.34
-3.43
-7.05
-10.45
-13.68
-16.78
-19.64
-22.02
-23.70
-24.63
-24.95
-24.99
-25.16
-25.73
-26.82
-28.34
-30.09
-31.82
-33.43
-34.95
-36.56
-38.52
-40.95
-43.67
-46.16
-47.64
-47.38
-44.98
-40.56
-34.69
-28.26
-22.01
-16.47
-11.80
-7.91
-4.70
-2.12
-0.28
0.72
0.87
0.39
-0.41
-1.17
-1.66
-1.84
-1.82
-1.82
-1.98
-2.45
-3.26
-4.47
-6.20
-8.54
-11.54
-15.05
-18.78
-22.31
-25.25
-27.37
-28.65
-29.25
-29.41
-29.35
-29.21
-29.10
-29.15
-29.47
-30.07
-30.74
-31.04
-30.35
-28.16
-24.26
-18.82
-12.36
-5.45
1.47
8.28
15.04
21.80
28.41
34.50
39.62
43.51
46.17
47.90
49.08
50.01
50.76
51.24
51.39
51.22
50.86
50.38
49.62
48.23
45.71
41.64
35.83
28.40
19.80
10.62
1.57
-6.75
-13.92
-19.80
-24.61
-28.77
-32.74
-36.78
-40.89
-44.78
-48.07
-50.40
-51.55
-51.40
-49.94
-47.26
-43.56
-39.22
-34.68
-30.32
-26.35
-22.69
-19.17
-15.59
-11.96
-8.47
-5.51
-3.42
-2.39
-2.43
-3.33
-4.80
-6.50
-8.22
-9.76
-11.09
-12.30
-13.45
-14.62
-15.78
-16.86
-17.75
-18.46
-19.13
-19.94
-21.05
-22.41
-23.79
-24.84
-25.28
-25.05
-24.30
-23.35
-22.44
-21.77
-21.41
-21.49
-22.17
-23.60
-25.77
-28.29
-30.46
-31.35
-30.16
-26.45
-20.29
-12.22
-3.04
6.38
15.36
23.42
30.42
36.35
41.30
45.32
48.37
50.42
51.41
51.41
50.54
49.01
47.04
44.90
42.97
41.71
41.65
43.17
46.43
51.21
56.98
63.02
68.63
73.27
76.64
78.73
79.61
79.50
78.55
76.85
74.42
71.20
67.21
62.57
57.53
52.36
47.27
42.23
36.89
30.66
22.78
12.48
-0.83
-17.34
-36.76
-58.21
-80.18
-100.78
-117.92
-129.84
-135.37
-134.29
-127.36
-116.15
-102.58
-88.45
-75.07
-63.03
-52.36
-42.74
-33.96
-26.00
-19.02
-13.18
-8.39
-4.30
-0.44
3.47
7.38
10.92
13.68
15.46
16.46
17.10
17.87
18.97
20.33
21.60
22.41
22.54
21.98
20.93
19.66
18.43
17.35
16.40
15.45
14.37
13.03
11.42
9.59
7.68
5.80
3.95
2.03
-0.15
-2.76
-5.91
-9.53
-13.37
-17.18
-20.67
-23.71
-26.27
-28.34
-29.86
-30.68
-30.58
-29.41
-27.16
-24.06
-20.48
-16.82
-13.41
-10.38
-7.67
-5.16
-2.72
-0.32
2.00
4.14
6.07
7.86
9.62
11.46
13.34
15.08
16.43
17.17
17.28
16.87
16.18
15.35
14.43
13.34
11.96
10.26
8.31
6.26
4.25
2.35
0.52
-1.29
-3.16
-5.11
-7.21
-9.50
-12.11
-15.23
-19.07
-23.83
-29.56
-36.11
-43.05
-49.70
-55.43
-59.84
-63.07
-65.71
-68.62
-72.46
-77.43
-83.23
-89.34
-95.41
-101.57
-108.34
-116.26
-125.49
-135.75
-146.47
-157.22
-167.82
-178.11
-187.45
-194.54
-197.68
-195.55
-187.98
-176.35
-163.17
-151.08
-141.90
-135.99
-132.52
-130.11
-127.60
-124.53
-120.96
-117.17
-113.20
-108.70
-102.96
-95.21
-84.91
-71.99
-56.86
-40.14
-22.40
-3.89
15.52
36.29
58.97
84.12
112.27
143.83
178.81
216.39
254.47
289.81
318.70
338.20
347.14
346.62
339.44
328.96
317.89
307.68
298.65
290.63
283.60
277.79
273.44
270.42
268.00
265.19
261.16
255.61
248.84
241.55
234.41
227.81
221.73
215.95
210.23
204.33
198.00
190.78
182.14
171.71
159.63
146.85
134.91
125.53
119.90
118.23
119.61
122.33
124.42
124.16
120.40
112.64
100.87
85.41
66.84
45.84
23.06
-0.95
-25.91
-51.93
-79.58
-109.35
-141.19
-173.87
-204.80
-230.61
-248.15
-255.72
-253.65
-244.18
-230.47
-215.48
-201.12
-188.14
-176.57
-166.24
-157.19
-149.51
-143.18
-137.80
-132.73
-127.33
-121.32
-114.86
-108.45
-102.68
-97.87
-94.02
-90.79
-87.74
-84.57
-81.14
-77.60
-74.05
-70.54
-66.97
-63.20
-59.21
-55.11
-51.28
-48.10
-45.86
-44.70
-44.64
-45.64
-47.60
-50.36
-53.48
-56.35
-58.17
-58.30
-56.46
-52.91
-48.19
-42.90
-37.41
-31.75
-25.78
-19.36
-12.62
-5.97
0.07
5.13
9.14
12.28
14.86
17.05
18.84
20.02
20.45
20.24
19.72
19.38
19.51
20.16
20.91
21.24
20.72
19.28
17.27
15.21
13.62
12.66
12.22
11.91
11.33
10.26
8.68
6.72
4.49
2.12
-0.36
-2.91
-5.44
-7.80
-9.84
-11.49
-12.72
-13.57
-14.01
-13.94
-13.23
-11.78
-9.65
-6.97
-4.00
-0.93
2.13
5.11
7.97
10.49
12.37
13.25
12.97
11.65
9.79
7.99
6.75
6.27
6.36
6.63
6.66
6.34
5.78
5.27
5.04
5.07
5.20
5.13
4.65
3.70
2.35
0.67
-1.28
-3.45
-5.80
-8.24
-10.69
-13.09
-15.44
-17.73
-19.81
-21.41
-22.09
-21.50
-19.53
-16.43
-12.73
-9.03
-5.74
-2.88
-0.19
2.73
6.08
9.69
13.05
15.52
16.63
16.26
14.79
12.76
10.76
9.15
8.04
7.37
7.00
6.84
6.75
6.60
6.12
5.04
3.14
0.42
-2.93
-6.55
-10.01
-12.94
-15.15
-16.61
-17.55
-18.39
-19.63
-21.69
-24.73
-28.44
-32.11
-34.80
-35.64
-34.22
-30.69
-25.71
-20.09
-14.55
-9.44
-4.79
-0.41
3.92
8.21
12.38
16.17
19.43
22.05
24.07
25.56
26.54
27.01
26.85
25.98
24.42
22.35
20.05
17.80
15.81
14.08
12.52
10.94
